# R(Angstrom) U(cm^-1)
# A1Sigma+ potential curve for NaRb
  2.328379    24897.259773
  2.434214    23298.221314
  2.540050    21767.662342
  2.645885    20330.465969
  2.751720    19005.493910
  2.857556    17804.705229
  2.963391    16733.429186
  3.069227    15791.416195
  3.175062    14974.193955
  3.280897    14274.409540
  3.598404    12785.400276
  3.704239    12459.328726
  3.915910    12006.181979
  4.021745    11862.550713
  4.127581    11764.464274
  4.233416    11705.600080
  4.339251    11680.410011
  4.445087    11684.082568
  4.550922    11712.496214
  4.656758    11762.160229
  4.762593    11830.151999
  4.868428    11914.046901
  4.974264    12011.849231
  5.185935    12242.899942
  5.291770    12373.649429
  5.397605    12513.178188
  5.503441    12660.592384
  5.609276    12815.054920
  5.715112    12975.746761
  5.820947    13141.853502
  5.926782    13312.550512
  6.032618    13487.003785
  6.138453    13664.373503
  6.244289    13843.820878
  6.350124    14024.517064
  6.455959    14205.651013
  6.561795    14386.437600
  6.667630    14566.122644
  6.773466    14743.987431
  6.879301    14919.352205
  6.985136    15091.574541
  7.090972    15260.054593
  7.196807    15424.231779
  7.302643    15583.588819
  7.408478    15737.649409
  7.514313    15885.984061
  7.620149    16028.209635
  7.725984    16163.995780
  7.831820    16293.067604
  7.937655    16415.212018
  8.043490    16530.279561
  8.149326    16638.190957
  8.255161    16738.935585
  8.360997    16832.574854
  8.572667    16999.116154
  8.678503    17072.457729
  8.784338    17139.558651
  8.890174    17200.750966
  8.996009    17256.394413
  9.101844    17306.865546
  9.207680    17352.545218
  9.313515    17393.816105
  9.419351    17431.049735
  9.525186    17464.603434
  9.842692    17546.477282
 10.054363    17588.302343
 10.160198    17606.137422
 10.266034    17622.201494
 10.477705    17649.741522
 10.583540    17661.534201
 10.795211    17681.835715
 10.901046    17690.571156
 11.430223    17723.622214
 11.853565    17741.083616
 11.959400    17744.582195
 12.065236    17747.799847
 12.171071    17750.762644
 12.276906    17753.495082
 12.594413    17760.510698
 12.700248    17762.512570
 12.806083    17764.370752
 12.911919    17766.097798
 13.017754    17767.704308
 13.123590    17769.200818
 13.229425    17770.596106
 13.335260    17771.898732
 13.441096    17773.116443
 13.546931    17774.255319
 13.652767    17775.321746
 13.758602    17776.321277
 13.864437    17777.259400
 13.970273    17778.140129
 14.076108    17778.968273
 14.181944    17779.747101
 14.287779    17780.480629
 14.393614    17781.171886
 14.499450    17781.823901
 14.605285    17782.439001
 14.711121    17783.020258
 14.816956    17783.569646
 14.922791    17784.089275
 15.028627    17784.581117
 15.134462    17785.047128
 15.240298    17785.488601
 15.346133    17785.907578
 15.451968    17786.305134
 15.557804    17786.682697
 15.663639    17787.041318
 15.769475    17787.382667
 15.875310    17787.707402
 16.086981    17788.310935
