# R(Angstrom) U(cm^-1)
# X1Sigma+ potential curve for NaRb
  2.328379     8404.861336
  2.434214     6962.753384
  2.540050     5638.277974
  2.645885     4450.751772
  2.751720     3411.726056
  2.857556     2525.479308
  2.963391     1790.088689
  3.069227     1198.833601
  3.175062      741.638249
  3.280897      406.364347
  3.598404        0.000000
  3.704239       21.237682
  3.915910      228.823834
  4.021745      395.252237
  4.127581      591.841239
  4.233416      811.103199
  4.339251     1046.449731
  4.445087     1292.123598
  4.550922     1543.128525
  4.656758     1795.169307
  4.762593     2044.590001
  4.868428     2288.327114
  4.974264     2523.865664
  5.185935     2962.801012
  5.291770     3163.570853
  5.397605     3350.811640
  5.503441     3524.177197
  5.609276     3683.630587
  5.715112     3829.392776
  5.820947     3961.898653
  5.926782     4081.745716
  6.032618     4189.651999
  6.138453     4286.416235
  6.244289     4372.880878
  6.350124     4449.905873
  6.455959     4518.340038
  6.561795     4579.007282
  6.667630     4632.691457
  6.773466     4680.126158
  6.879301     4721.992897
  6.985136     4758.914105
  7.090972     4791.457562
  7.196807     4820.134731
  7.302643     4845.404360
  7.408478     4867.675241
  7.514313     4887.312141
  7.620149     4904.635669
  7.725984     4919.931229
  7.831820     4933.448496
  7.937655     4945.408020
  8.043490     4956.001951
  8.149326     4965.400096
  8.255161     4973.750249
  8.360997     4981.181222
  8.572667     4993.724043
  8.678503     4999.020141
  8.784338     5003.770165
  8.890174     5008.039056
  8.996009     5011.883703
  9.101844     5015.354365
  9.207680     5018.493511
  9.313515     5021.339768
  9.419351     5023.925728
  9.525186     5026.279856
  9.842692     5032.190703
 10.054363     5035.359127
 10.160198     5036.756522
 10.266034     5038.045145
 10.477705     5040.336021
 10.583540     5041.355020
 10.795211     5043.175628
 10.901046     5043.989484
 11.430223     5047.283732
 11.853565     5049.205759
 11.959400     5049.610866
 12.065236     5049.990271
 12.171071     5050.345623
 12.276906     5050.679027
 12.594413     5051.562654
 12.700248     5051.823082
 12.806083     5052.068521
 12.911919     5052.300198
 13.017754     5052.518663
 13.123590     5052.725474
 13.229425     5052.921026
 13.335260     5053.106306
 13.441096     5053.282281
 13.546931     5053.449301
 13.652767     5053.608047
 13.758602     5053.759134
 13.864437     5053.903416
 13.970273     5054.040786
 14.076108     5054.172361
 14.181944     5054.298076
 14.287779     5054.418501
 14.393614     5054.534055
 14.499450     5054.644999
 14.605285     5054.751422
 14.711121     5054.853939
 14.816956     5054.952659
 14.922791     5055.047669
 15.028627     5055.139278
 15.134462     5055.227770
 15.240298     5055.313058
 15.346133     5055.395559
 15.451968     5055.475250
 15.557804     5055.552329
 15.663639     5055.626687
 15.769475     5055.698872
 15.875310     5055.768687
 16.086981     5055.901491
